PMN (111), 17.4.2019, 18:47
Diameter[mm] 6.200e+00  Thickness[mm] 4.000e-01  Spacer Capacity[pF] 0.000e+00  Spacer Area[mm^2] 0.000e+00
Fixed value(s) :  Temp. [K]=4.9443e+02  AC Volt  [Vrms]=1.000e+00
 Freq. [Hz]	 Eps'    	 Sig' [S/cm]	Tan(Delta)  	M Temp [K]	 Eps''   	  Cp' [F]	M Time M[s]	M AcV' [Vrms]
3.00000e+06 1.03774e+04 4.75056e-03 2.74288e-01 2.57013e+02 2.84639e+03 6.93505e-09 4.65900e+02 1.45360e-01
1.87500e+06 1.11329e+04 2.90759e-03 2.50378e-01 2.57014e+02 2.78743e+03 7.43995e-09 4.67000e+02 2.05320e-01
1.17188e+06 1.18971e+04 1.77256e-03 2.28532e-01 2.57014e+02 2.71888e+03 7.95068e-09 4.68600e+02 2.38794e-01
7.32422e+05 1.27280e+04 1.11390e-03 2.14782e-01 2.57013e+02 2.73373e+03 8.50593e-09 4.69700e+02 4.03945e-01
4.57764e+05 1.35337e+04 6.97517e-04 2.02380e-01 2.57014e+02 2.73895e+03 9.04438e-09 4.70800e+02 5.51224e-01
2.86102e+05 1.43516e+04 4.38993e-04 1.92179e-01 2.57012e+02 2.75808e+03 9.59100e-09 4.71800e+02 6.93938e-01
1.78814e+05 1.51711e+04 2.76805e-04 1.83411e-01 2.57013e+02 2.78255e+03 1.01386e-08 4.72900e+02 8.10414e-01
1.11759e+05 1.60084e+04 1.74912e-04 1.75737e-01 2.57013e+02 2.81325e+03 1.06982e-08 4.74100e+02 8.90154e-01
6.98492e+04 1.68527e+04 1.10666e-04 1.68986e-01 2.57013e+02 2.84788e+03 1.12624e-08 4.75700e+02 9.39709e-01
4.36558e+04 1.77101e+04 7.00463e-05 1.62852e-01 2.57012e+02 2.88413e+03 1.18354e-08 4.76700e+02 9.66989e-01
2.72848e+04 1.85812e+04 4.43166e-05 1.57124e-01 2.57011e+02 2.91955e+03 1.24176e-08 4.78300e+02 9.83886e-01
1.70530e+04 1.94628e+04 2.80123e-05 1.51709e-01 2.57011e+02 2.95269e+03 1.30067e-08 4.79900e+02 9.93019e-01
1.06581e+04 2.03645e+04 1.76924e-05 1.46522e-01 2.57011e+02 2.98385e+03 1.36093e-08 4.81300e+02 9.98452e-01
6.66134e+03 2.12699e+04 1.11483e-05 1.41434e-01 2.57008e+02 3.00829e+03 1.42144e-08 4.82300e+02 1.00159e+00
4.16334e+03 2.21822e+04 7.00817e-06 1.36405e-01 2.57007e+02 3.02576e+03 1.48240e-08 4.83800e+02 1.00279e+00
2.60208e+03 2.31006e+04 4.39256e-06 1.31354e-01 2.57007e+02 3.03436e+03 1.54378e-08 4.85500e+02 1.00326e+00
1.62630e+03 2.40219e+04 2.74894e-06 1.26482e-01 2.57007e+02 3.03833e+03 1.60535e-08 4.87100e+02 1.00434e+00
1.01644e+03 2.49705e+04 1.70769e-06 1.20940e-01 2.57006e+02 3.01993e+03 1.66874e-08 4.88000e+02 1.00164e+00
6.35275e+02 2.57994e+04 1.04852e-06 1.14994e-01 2.57007e+02 2.96679e+03 1.72414e-08 4.89300e+02 1.00209e+00
3.97047e+02 2.67015e+04 6.47042e-07 1.09705e-01 2.57005e+02 2.92929e+03 1.78442e-08 4.90200e+02 1.00202e+00
2.48154e+02 2.75900e+04 3.96733e-07 1.04159e-01 2.57006e+02 2.87374e+03 1.84380e-08 4.91900e+02 1.00196e+00
1.55096e+02 2.84106e+04 2.40756e-07 9.82122e-02 2.57005e+02 2.79027e+03 1.89864e-08 4.93300e+02 1.00228e+00
9.69352e+01 2.92503e+04 1.45629e-07 9.23222e-02 2.57004e+02 2.70045e+03 1.95476e-08 4.94300e+02 1.00228e+00
6.05845e+01 3.00602e+04 8.73942e-08 8.62580e-02 2.57006e+02 2.59293e+03 2.00888e-08 4.96000e+02 1.00222e+00
3.78653e+01 3.08507e+04 5.20418e-08 8.00786e-02 2.57007e+02 2.47048e+03 2.06171e-08 4.97500e+02 1.00222e+00
2.36658e+01 3.15801e+04 3.06990e-08 7.38345e-02 2.57006e+02 2.33170e+03 2.11045e-08 4.99100e+02 1.00222e+00
1.47911e+01 3.22364e+04 1.78544e-08 6.73079e-02 2.57006e+02 2.16977e+03 2.15432e-08 5.00400e+02 1.00225e+00
9.24446e+00 3.28664e+04 1.03454e-08 6.12049e-02 2.57007e+02 2.01158e+03 2.19642e-08 5.01500e+02 1.00225e+00
5.77779e+00 3.34461e+04 5.93202e-09 5.51779e-02 2.57007e+02 1.84549e+03 2.23516e-08 5.03200e+02 1.00226e+00
3.61112e+00 3.39904e+04 3.36722e-09 4.93110e-02 2.57007e+02 1.67610e+03 2.27153e-08 5.04700e+02 1.00225e+00
2.25695e+00 3.44544e+04 1.88649e-09 4.36072e-02 2.57006e+02 1.50246e+03 2.30254e-08 5.05900e+02 1.00225e+00
1.41059e+00 3.48663e+04 1.04813e-09 3.83070e-02 2.57006e+02 1.33563e+03 2.33007e-08 5.08500e+02 1.00226e+00
8.81621e-01 3.51875e+04 5.72178e-10 3.31537e-02 2.57006e+02 1.16659e+03 2.35153e-08 5.11900e+02 1.00230e+00
5.51013e-01 3.54974e+04 3.12848e-10 2.87505e-02 2.57005e+02 1.02057e+03 2.37224e-08 5.17800e+02 1.00231e+00
3.44383e-01 3.57851e+04 1.70287e-10 2.48374e-02 2.57009e+02 8.88811e+02 2.39147e-08 5.27000e+02 1.00232e+00
2.15239e-01 3.60091e+04 9.24651e-11 2.14444e-02 2.57006e+02 7.72195e+02 2.40644e-08 5.36700e+02 1.00233e+00
1.34525e-01 3.62042e+04 5.01139e-11 1.84956e-02 2.57010e+02 6.69618e+02 2.41948e-08 5.59500e+02 1.00236e+00
1.00000e-01 3.62653e+04 3.34852e-11 1.65971e-02 2.57009e+02 6.01899e+02 2.42356e-08 5.80300e+02 1.00236e+00
